# energy mu normalized_energy pre_edge post_edge
8.002894000000000233e+03 5.249888000000000332e-01 8.002894000000000233e+03 5.172031649191748404e-01 3.947727891746581896e+00
8.007319999999999709e+03 5.236315000000000275e-01 8.007319999999999709e+03 5.165362541936151519e-01 3.943838392585760744e+00
8.011750000000000000e+03 5.225714000000000192e-01 8.011750000000000000e+03 5.158687407471107544e-01 3.939945378287874611e+00
8.016182999999999993e+03 5.218207999999999736e-01 8.016182999999999993e+03 5.152007752598974921e-01 3.936049727637191964e+00
8.020621000000000095e+03 5.207962000000000424e-01 8.020621000000000095e+03 5.145320563715030104e-01 3.932149683065180312e+00
8.025061999999999898e+03 5.200812000000000213e-01 8.025061999999999898e+03 5.138628854424001080e-01 3.928247002140370370e+00
8.029506999999999607e+03 5.189023000000000385e-01 8.029506999999999607e+03 5.131931117923520524e-01 3.924340806078497224e+00
8.033954999999999927e+03 5.182470000000000132e-01 8.033954999999999927e+03 5.125228861015953541e-01 3.920431973663825787e+00
8.038408000000000357e+03 5.174832000000000320e-01 8.038408000000000357e+03 5.118519070096574364e-01 3.916518747327824457e+00
8.042862000000000080e+03 5.163729000000000235e-01 8.042862000000000080e+03 5.111807772374834524e-01 3.912604642207558214e+00
8.047322000000000116e+03 5.156916000000000277e-01 8.047322000000000116e+03 5.105087433838919608e-01 3.908685264381696278e+00
8.051783999999999651e+03 5.147099000000000535e-01 8.051783999999999651e+03 5.098364081698281147e-01 3.904764128987303629e+00
8.056248999999999796e+03 5.140327000000000091e-01 8.056248999999999796e+03 5.091636209150556258e-01 3.900840357240111800e+00
8.060716999999999643e+03 5.130493999999999888e-01 8.060716999999999643e+03 5.084903816195742721e-01 3.896913949140123457e+00
8.100171000000000276e+03 5.058498000000000161e-01 8.100171000000000276e+03 5.025454435793057506e-01 3.862242394713766735e+00
8.145275999999999840e+03 4.974593999999999960e-01 8.145275999999999840e+03 4.957490115240945627e-01 3.822604830400875287e+00
8.190697000000000116e+03 4.893573999999999979e-01 8.190697000000000116e+03 4.889049645142340417e-01 3.782689570259963219e+00
8.236506999999999607e+03 4.815497999999999723e-01 8.236506999999999607e+03 4.820023028924798059e-01 3.742432463039620849e+00
8.282820999999999913e+03 4.740913999999999962e-01 8.282820999999999913e+03 4.750236984316649202e-01 3.701732448549270416e+00
8.329765999999999622e+03 4.664945999999999815e-01 8.329765999999999622e+03 4.679500147417881006e-01 3.660477921187145434e+00
8.377449000000000524e+03 4.588793999999999929e-01 8.377449000000000524e+03 4.607651290375724962e-01 3.618574851036793660e+00
8.425935999999999694e+03 4.512149999999999772e-01 8.425935999999999694e+03 4.534590964234270771e-01 3.575965238336668683e+00
8.475237999999999374e+03 4.437137999999999916e-01 8.475237999999999374e+03 4.460302594167533385e-01 3.532639416459844028e+00
8.525308000000000902e+03 4.360756000000000077e-01 8.525308000000000902e+03 4.384856999886534989e-01 3.488638688266816779e+00
8.576049000000000888e+03 4.284511999999999765e-01 8.576049000000000888e+03 4.308400341220428587e-01 3.444048295831378503e+00
8.576304000000000087e+03 4.284364999999999979e-01 8.576304000000000087e+03 4.308016106618040020e-01 3.443824205843577957e+00
8.576559999999999491e+03 4.283842999999999956e-01 8.576559999999999491e+03 4.307630365213288570e-01 3.443599237071510721e+00
8.576814000000000306e+03 4.282948999999999784e-01 8.576814000000000306e+03 4.307247637413260666e-01 3.443376025867975088e+00
8.577068999999999505e+03 4.282861000000000029e-01 8.577068999999999505e+03 4.306863402810872099e-01 3.443151935880173653e+00
8.577325000000000728e+03 4.283101999999999743e-01 8.577325000000000728e+03 4.306477661406118429e-01 3.442926967108105529e+00
8.577578999999999724e+03 4.283116000000000145e-01 8.577578999999999724e+03 4.306094933606090525e-01 3.442703755904570784e+00
8.577835999999999331e+03 4.282801999999999998e-01 8.577835999999999331e+03 4.305707685398978413e-01 3.442477908348237747e+00
8.578090000000000146e+03 4.282367999999999730e-01 8.578090000000000146e+03 4.305324957598948288e-01 3.442254697144701225e+00
8.578346999999999753e+03 4.282321000000000044e-01 8.578346999999999753e+03 4.304937709391836176e-01 3.442028849588368189e+00
8.578601000000000568e+03 4.281984999999999819e-01 8.578601000000000568e+03 4.304554981591806051e-01 3.441805638384832555e+00
8.578855999999999767e+03 4.281855999999999995e-01 8.578855999999999767e+03 4.304170746989417484e-01 3.441581548397031121e+00
8.579111999999999171e+03 4.280165000000000219e-01 8.579111999999999171e+03 4.303785005584666035e-01 3.441356579624964773e+00
8.579367000000000189e+03 4.281110000000000193e-01 8.579367000000000189e+03 4.303400770982275247e-01 3.441132489637162450e+00
8.579623999999999796e+03 4.280417999999999723e-01 8.579623999999999796e+03 4.303013522775160915e-01 3.440906642080829414e+00
8.579878000000000611e+03 4.281375000000000042e-01 8.579878000000000611e+03 4.302630794975133011e-01 3.440683430877292892e+00
8.580134000000000015e+03 4.280751999999999891e-01 8.580134000000000015e+03 4.302245053570381561e-01 3.440458462105225657e+00
8.580389999999999418e+03 4.280996000000000246e-01 8.580389999999999418e+03 4.301859312165630111e-01 3.440233493333159309e+00
8.580645000000000437e+03 4.280888999999999944e-01 8.580645000000000437e+03 4.301475077563239324e-01 3.440009403345356986e+00
8.580899999999999636e+03 4.281009000000000064e-01 8.580899999999999636e+03 4.301090842960850757e-01 3.439785313357555552e+00
8.581156000000000859e+03 4.280056999999999889e-01 8.581156000000000859e+03 4.300705101556097087e-01 3.439560344585487428e+00
8.581411000000000058e+03 4.278349000000000180e-01 8.581411000000000058e+03 4.300320866953708521e-01 3.439336254597686882e+00
8.581666999999999462e+03 4.277560000000000251e-01 8.581666999999999462e+03 4.299935125548957071e-01 3.439111285825619646e+00
8.581922000000000480e+03 4.277539000000000202e-01 8.581922000000000480e+03 4.299550890946566284e-01 3.438887195837817323e+00
8.582177999999999884e+03 4.276693999999999773e-01 8.582177999999999884e+03 4.299165149541814834e-01 3.438662227065750088e+00
8.582433000000000902e+03 4.274609999999999799e-01 8.582433000000000902e+03 4.298780914939424047e-01 3.438438137077947765e+00
8.582688000000000102e+03 4.274981999999999949e-01 8.582688000000000102e+03 4.298396680337035480e-01 3.438214047090147218e+00
8.582942999999999302e+03 4.273822999999999928e-01 8.582942999999999302e+03 4.298012445734646914e-01 3.437989957102346672e+00
8.583200000000000728e+03 4.274151999999999951e-01 8.583200000000000728e+03 4.297625197527530361e-01 3.437764109546011859e+00
8.583454999999999927e+03 4.273388000000000186e-01 8.583454999999999927e+03 4.297240962925141794e-01 3.437540019558211313e+00
8.583710999999999331e+03 4.273756000000000221e-01 8.583710999999999331e+03 4.296855221520390344e-01 3.437315050786144077e+00
8.583966000000000349e+03 4.272782999999999998e-01 8.583966000000000349e+03 4.296470986917999557e-01 3.437090960798341754e+00
8.584221999999999753e+03 4.272597000000000200e-01 8.584221999999999753e+03 4.296085245513248108e-01 3.436865992026274519e+00
8.584477999999999156e+03 4.271483999999999837e-01 8.584477999999999156e+03 4.295699504108496658e-01 3.436641023254208172e+00
8.584733000000000175e+03 4.272674000000000194e-01 8.584733000000000175e+03 4.295315269506105871e-01 3.436416933266405849e+00
8.584988999999999578e+03 4.270130999999999788e-01 8.584988999999999578e+03 4.294929528101354421e-01 3.436191964494338613e+00
8.585245000000000800e+03 4.273580000000000156e-01 8.585245000000000800e+03 4.294543786696600751e-01 3.435966995722270489e+00
8.585501000000000204e+03 4.273539000000000088e-01 8.585501000000000204e+03 4.294158045291849302e-01 3.435742026950203254e+00
8.585756999999999607e+03 4.273249000000000075e-01 8.585756999999999607e+03 4.293772303887097852e-01 3.435517058178136018e+00
8.586012000000000626e+03 4.270785000000000275e-01 8.586012000000000626e+03 4.293388069284707065e-01 3.435292968190333696e+00
8.586269000000000233e+03 4.268912999999999736e-01 8.586269000000000233e+03 4.293000821077592732e-01 3.435067120634000659e+00
8.586522999999999229e+03 4.269324999999999926e-01 8.586522999999999229e+03 4.292618093277567048e-01 3.434843909430465914e+00
8.586779000000000451e+03 4.271896000000000027e-01 8.586779000000000451e+03 4.292232351872813378e-01 3.434618940658397790e+00
8.587034999999999854e+03 4.272136000000000267e-01 8.587034999999999854e+03 4.291846610468061929e-01 3.434393971886330554e+00
8.587290999999999258e+03 4.273095000000000088e-01 8.587290999999999258e+03 4.291460869063310479e-01 3.434169003114264207e+00
8.587547000000000480e+03 4.273235000000000228e-01 8.587547000000000480e+03 4.291075127658556809e-01 3.433944034342195195e+00
8.587801999999999680e+03 4.272079999999999766e-01 8.587801999999999680e+03 4.290690893056168242e-01 3.433719944354394649e+00
8.588058999999999287e+03 4.271069000000000115e-01 8.588058999999999287e+03 4.290303644849056131e-01 3.433494096798061612e+00
8.588313000000000102e+03 4.271477000000000190e-01 8.588313000000000102e+03 4.289920917049026006e-01 3.433270885594525090e+00
8.588568999999999505e+03 4.271724000000000077e-01 8.588568999999999505e+03 4.289535175644274556e-01 3.433045916822458743e+00
8.588825999999999112e+03 4.269993000000000261e-01 8.588825999999999112e+03 4.289147927437162444e-01 3.432820069266125707e+00
8.589081000000000131e+03 4.270321000000000256e-01 8.589081000000000131e+03 4.288763692834769437e-01 3.432595979278323384e+00
8.589336999999999534e+03 4.270092999999999805e-01 8.589336999999999534e+03 4.288377951430020207e-01 3.432371010506256148e+00
8.590103999999999360e+03 4.269061000000000106e-01 8.590103999999999360e+03 4.287222234018126521e-01 3.431696982974320242e+00
8.592665999999999258e+03 4.265188999999999786e-01 8.592665999999999258e+03 4.283361806365881819e-01 3.429445537685114509e+00
8.595227000000000771e+03 4.261186000000000140e-01 8.595227000000000771e+03 4.279502885515995558e-01 3.427194971180173688e+00
8.597790000000000873e+03 4.256905999999999746e-01 8.597790000000000873e+03 4.275640951061387973e-01 3.424942647106701266e+00
8.600353999999999360e+03 4.253151000000000015e-01 8.600353999999999360e+03 4.271777509804421946e-01 3.422689444248964818e+00
8.600480999999999767e+03 4.253406000000000131e-01 8.600480999999999767e+03 4.271586145904406884e-01 3.422577838647197446e+00
8.600737999999999374e+03 4.252527999999999864e-01 8.600737999999999374e+03 4.271198897697292551e-01 3.422351991090864409e+00
8.600994000000000597e+03 4.251854999999999940e-01 8.600994000000000597e+03 4.270813156292538881e-01 3.422127022318795397e+00
8.601251000000000204e+03 4.252551999999999999e-01 8.601251000000000204e+03 4.270425908085424549e-01 3.421901174762462361e+00
8.601507999999999811e+03 4.251225000000000143e-01 8.601507999999999811e+03 4.270038659878312437e-01 3.421675327206129325e+00
8.601763999999999214e+03 4.251553000000000138e-01 8.601763999999999214e+03 4.269652918473560987e-01 3.421450358434062977e+00
8.602021000000000640e+03 4.250226999999999755e-01 8.602021000000000640e+03 4.269265670266444435e-01 3.421224510877728164e+00
8.602277000000000044e+03 4.250740000000000074e-01 8.602277000000000044e+03 4.268879928861692985e-01 3.420999542105661817e+00
8.602533999999999651e+03 4.249596999999999958e-01 8.602533999999999651e+03 4.268492680654578653e-01 3.420773694549328781e+00
8.602790000000000873e+03 4.249927000000000010e-01 8.602790000000000873e+03 4.268106939249824983e-01 3.420548725777259769e+00
8.603047000000000480e+03 4.248601000000000183e-01 8.603047000000000480e+03 4.267719691042710650e-01 3.420322878220926732e+00
8.603304000000000087e+03 4.249195000000000055e-01 8.603304000000000087e+03 4.267332442835598538e-01 3.420097030664594584e+00
8.603559999999999491e+03 4.247155000000000236e-01 8.603559999999999491e+03 4.266946701430847089e-01 3.419872061892527348e+00
8.603816000000000713e+03 4.247933999999999877e-01 8.603816000000000713e+03 4.266560960026093419e-01 3.419647093120459225e+00
8.604073000000000320e+03 4.247711000000000126e-01 8.604073000000000320e+03 4.266173711818979086e-01 3.419421245564126188e+00
8.604329999999999927e+03 4.246939000000000131e-01 8.604329999999999927e+03 4.265786463611864754e-01 3.419195398007793152e+00
8.604586999999999534e+03 4.247267000000000126e-01 8.604586999999999534e+03 4.265399215404750421e-01 3.418969550451460115e+00
8.604843999999999141e+03 4.246495000000000131e-01 8.604843999999999141e+03 4.265011967197638310e-01 3.418743702895127079e+00
8.605100000000000364e+03 4.245803000000000216e-01 8.605100000000000364e+03 4.264626225792882419e-01 3.418518734123058955e+00
8.605355999999999767e+03 4.246680999999999928e-01 8.605355999999999767e+03 4.264240484388133190e-01 3.418293765350991720e+00
8.605612999999999374e+03 4.246542999999999846e-01 8.605612999999999374e+03 4.263853236181018858e-01 3.418067917794658683e+00
8.605870000000000800e+03 4.246135999999999799e-01 8.605870000000000800e+03 4.263465987973902305e-01 3.417842070238323871e+00
8.606127000000000407e+03 4.245466999999999991e-01 8.606127000000000407e+03 4.263078739766787972e-01 3.417616222681990834e+00
8.606384000000000015e+03 4.245429000000000008e-01 8.606384000000000015e+03 4.262691491559673640e-01 3.417390375125658686e+00
8.606641999999999825e+03 4.244944999999999968e-01 8.606641999999999825e+03 4.262302736550198645e-01 3.417163648785058960e+00
8.606897000000000844e+03 4.244170999999999916e-01 8.606897000000000844e+03 4.261918501947807858e-01 3.416939558797256637e+00
8.607153000000000247e+03 4.244867999999999975e-01 8.607153000000000247e+03 4.261532760543056408e-01 3.416714590025190290e+00
8.607411000000000058e+03 4.243260999999999838e-01 8.607411000000000058e+03 4.261144005533579193e-01 3.416487863684590565e+00
8.607667999999999665e+03 4.242956999999999979e-01 8.607667999999999665e+03 4.260756757326464861e-01 3.416262016128258416e+00
8.607924999999999272e+03 4.243024000000000240e-01 8.607924999999999272e+03 4.260369509119352749e-01 3.416036168571925380e+00
8.608182000000000698e+03 4.242067999999999950e-01 8.608182000000000698e+03 4.259982260912236196e-01 3.415810321015590567e+00
8.608438000000000102e+03 4.240932000000000035e-01 8.608438000000000102e+03 4.259596519507484746e-01 3.415585352243523332e+00
8.608693999999999505e+03 4.241810999999999776e-01 8.608693999999999505e+03 4.259210778102733297e-01 3.415360383471456984e+00
8.608950999999999112e+03 4.240958000000000228e-01 8.608950999999999112e+03 4.258823529895618965e-01 3.415134535915123948e+00
8.609208000000000538e+03 4.240717999999999988e-01 8.609208000000000538e+03 4.258436281688502412e-01 3.414908688358789135e+00
8.609465000000000146e+03 4.240028000000000130e-01 8.609465000000000146e+03 4.258049033481388079e-01 3.414682840802456099e+00
8.609722999999999956e+03 4.240359000000000211e-01 8.609722999999999956e+03 4.257660278471913085e-01 3.414456114461857261e+00
8.609978999999999360e+03 4.239771999999999985e-01 8.609978999999999360e+03 4.257274537067161635e-01 3.414231145689790026e+00
8.610236000000000786e+03 4.239632999999999874e-01 8.610236000000000786e+03 4.256887288860045082e-01 3.414005298133456101e+00
8.610493000000000393e+03 4.239616999999999969e-01 8.610493000000000393e+03 4.256500040652930750e-01 3.413779450577123065e+00
8.610750000000000000e+03 4.238824999999999954e-01 8.610750000000000000e+03 4.256112792445816417e-01 3.413553603020790028e+00
8.611007999999999811e+03 4.238892000000000215e-01 8.611007999999999811e+03 4.255724037436341423e-01 3.413326876680191191e+00
8.611263000000000829e+03 4.237675000000000192e-01 8.611263000000000829e+03 4.255339802833950635e-01 3.413102786692388868e+00
8.611521000000000640e+03 4.236539999999999750e-01 8.611521000000000640e+03 4.254951047824473420e-01 3.412876060351790031e+00
8.611777000000000044e+03 4.237704999999999944e-01 8.611777000000000044e+03 4.254565306419721971e-01 3.412651091579722795e+00
8.612034999999999854e+03 4.236228000000000216e-01 8.612034999999999854e+03 4.254176551410246976e-01 3.412424365239123958e+00
8.616663000000000466e+03 4.230304999999999760e-01 8.616663000000000466e+03 4.247203070077461007e-01 3.408357351656592371e+00
8.621810999999999694e+03 4.222323000000000048e-01 8.621810999999999694e+03 4.239446051516277958e-01 3.403833370255799906e+00
8.626962999999999738e+03 4.214731999999999923e-01 8.626962999999999738e+03 4.231683005745643378e-01 3.399305873717943349e+00
8.632118000000000393e+03 4.207850000000000201e-01 8.632118000000000393e+03 4.223915439567920149e-01 3.394775740827288502e+00
8.637279000000000451e+03 4.200108000000000175e-01 8.637279000000000451e+03 4.216138832576024065e-01 3.390240335231038848e+00
8.642442999999999302e+03 4.193672999999999984e-01 8.642442999999999302e+03 4.208357705177043773e-01 3.385702293281992681e+00
8.647611999999999171e+03 4.186639999999999806e-01 8.647611999999999171e+03 4.200569043766249067e-01 3.381159857411616620e+00
8.652786000000000058e+03 4.177649999999999975e-01 8.652786000000000058e+03 4.192772848343642167e-01 3.376613027619909779e+00
8.657963999999999942e+03 4.169372000000000078e-01 8.657963999999999942e+03 4.184970625711588177e-01 3.372062682691140623e+00
8.663146000000000640e+03 4.162114000000000091e-01 8.663146000000000640e+03 4.177162375870082656e-01 3.367508822625306486e+00
8.668331000000000131e+03 4.155075999999999770e-01 8.668331000000000131e+03 4.169349605621490706e-01 3.362952326206676723e+00
8.673521000000000640e+03 4.147270000000000123e-01 8.673521000000000640e+03 4.161529301361088784e-01 3.358391435866715291e+00
8.678715000000000146e+03 4.141129000000000060e-01 8.678715000000000146e+03 4.153702969891237551e-01 3.353827030389692432e+00
8.683912000000000262e+03 4.132699000000000233e-01 8.683912000000000262e+03 4.145872118014297669e-01 3.349259988559870393e+00
8.689112999999999374e+03 4.126184999999999992e-01 8.689112999999999374e+03 4.138035238927910697e-01 3.344689431592986928e+00
8.694317999999999302e+03 4.119002999999999970e-01 8.694317999999999302e+03 4.130192332632074415e-01 3.340115359489038482e+00
8.699527000000000044e+03 4.111161999999999872e-01 8.699527000000000044e+03 4.122343399126786601e-01 3.335537772248025057e+00
8.704738999999999578e+03 4.103368000000000015e-01 8.704738999999999578e+03 4.114489945214412359e-01 3.330957548654216005e+00
8.709956000000000131e+03 4.097187999999999941e-01 8.709956000000000131e+03 4.106628957290225923e-01 3.326372931139076172e+00
8.715175999999999476e+03 4.090273999999999854e-01 8.715175999999999476e+03 4.098763448958955280e-01 3.321785677271139825e+00
8.720398999999999432e+03 4.082356999999999791e-01 8.720398999999999432e+03 4.090893420220595988e-01 3.317195787050405187e+00
8.725628000000000611e+03 4.075501999999999736e-01 8.725628000000000611e+03 4.083014350668061621e-01 3.312600624124074855e+00
8.730859000000000378e+03 4.067771000000000026e-01 8.730859000000000378e+03 4.075132267510803707e-01 3.308003703629212922e+00
8.736094999999999345e+03 4.060899000000000036e-01 8.736094999999999345e+03 4.067242650341735821e-01 3.303402389213022872e+00
8.741333000000000538e+03 4.054607000000000072e-01 8.741333000000000538e+03 4.059350019567942169e-01 3.298799317228299444e+00
8.746575999999999112e+03 4.047493999999999814e-01 8.746575999999999112e+03 4.051449854782338544e-01 3.294191851322247899e+00
8.751824000000000524e+03 4.040345000000000186e-01 8.751824000000000524e+03 4.043542155984918285e-01 3.289579991494864686e+00
8.757075000000000728e+03 4.033779000000000114e-01 8.757075000000000728e+03 4.035629936780416038e-01 3.284965495314685846e+00
8.757206000000000131e+03 4.033448000000000033e-01 8.757206000000000131e+03 4.035432545670953886e-01 3.284850374575854381e+00
8.757468000000000757e+03 4.033008000000000148e-01 8.757468000000000757e+03 4.035037763452025139e-01 3.284620133098191452e+00
8.757730999999999767e+03 4.031909000000000187e-01 8.757730999999999767e+03 4.034641474430740171e-01 3.284389012836263610e+00
